Data from Subt6_16-55-46-908.txt Node
Date: Thu Nov 26 16:55:46 GMT 2020
User: ajs39
Spectrometer: USB2+H09984
Trigger mode: 0
Integration Time (sec): 1.000000E-1
Scans to average: 6
Electric dark correction enabled: true
Nonlinearity correction enabled: false
Boxcar width: 0
XAxis mode: Wavelengths
Number of Pixels in Spectrum: 2048
>>>>>Begin Spectral Data<<<<<
339.236	10.43
339.617	10.43
339.998	10.43
340.38	6.53
340.761	-6.34
341.142	-14.92
341.523	1.07
341.905	42.81
342.286	-4.78
342.667	18.24
343.048	41.64
343.429	-25.84
343.81	9.65
344.191	-16.09
344.571	11.22
344.952	-14.53
345.333	-5.56
345.714	3.8
346.095	-27.79
346.475	-20.77
346.856	5.36
347.237	-18.43
347.617	-6.34
347.998	30.72
348.378	-6.73
348.759	27.21
349.139	29.16
349.52	-33.65
349.9	12
350.28	-11.41
350.661	24.09
351.041	4.58
351.421	18.63
351.801	-1.66
352.181	-15.31
352.561	33.45
352.942	6.14
353.322	17.07
353.702	20.19
354.082	-7.51
354.461	27.6
354.841	-21.16
355.221	27.21
355.601	48.27
355.981	13.95
356.36	-2.83
356.74	13.95
357.12	5.36
357.499	33.45
357.879	54.12
358.259	3.41
358.638	20.58
359.018	6.14
359.397	33.06
359.776	-2.83
360.156	45.15
360.535	-5.95
360.914	26.04
361.294	23.7
361.673	34.23
362.052	-0.49
362.431	-1.66
362.81	27.99
363.189	27.21
363.568	28.77
363.947	2.63
364.326	29.55
364.705	51.78
365.084	39.69
365.463	3.02
365.842	30.72
366.22	21.75
366.599	-6.73
366.978	-5.17
367.357	26.04
367.735	-31.69
368.114	-4
368.492	8.48
368.871	6.53
369.249	3.8
369.628	17.85
370.006	35.79
370.384	57.64
370.763	40.86
371.141	5.36
371.519	-0.1
371.897	36.96
372.276	27.6
372.654	23.7
373.032	15.51
373.41	30.72
373.788	-14.14
374.166	20.97
374.544	22.14
374.922	7.31
375.299	41.64
375.677	-2.44
376.055	9.65
376.433	0.68
376.811	2.24
377.188	31.11
377.566	22.53
377.943	20.97
378.321	-22.33
378.699	-2.44
379.076	7.7
379.453	-8.68
379.831	3.02
380.208	-4.39
380.586	-11.02
380.963	23.7
381.34	24.09
381.717	36.57
382.094	8.48
382.472	-18.82
382.849	18.63
383.226	43.59
383.603	12.78
383.98	26.04
384.357	42.81
384.734	16.68
385.111	17.07
385.487	81.04
385.864	-21.94
386.241	13.56
386.618	74.8
386.994	-11.02
387.371	-24.28
387.748	-9.85
388.124	24.09
388.501	29.16
388.877	40.08
389.254	33.45
389.63	19.41
390.006	10.82
390.383	3.02
390.759	6.14
391.135	-24.67
391.512	17.46
391.888	35.4
392.264	-10.63
392.64	-22.33
393.016	-13.75
393.392	-24.67
393.768	-1.66
394.144	7.31
394.52	31.11
394.896	-0.88
395.272	33.45
395.648	-4
396.023	56.86
396.399	14.34
396.775	31.11
397.15	1.85
397.526	23.31
397.902	24.09
398.277	18.63
398.653	12
399.028	18.24
399.404	-12.97
399.779	18.63
400.154	-18.04
400.53	35.79
400.905	35.4
401.28	33.45
401.655	16.68
402.03	13.56
402.406	10.82
402.781	-11.41
403.156	42.03
403.531	1.07
403.906	2.24
404.281	-6.34
404.655	8.09
405.03	-11.8
405.405	54.12
405.78	-5.95
406.155	3.8
406.529	-24.67
406.904	25.65
407.279	10.82
407.653	23.7
408.028	22.53
408.402	5.75
408.777	38.91
409.151	9.65
409.525	-4.39
409.9	-0.1
410.274	6.14
410.648	17.07
411.023	20.97
411.397	13.17
411.771	-13.75
412.145	26.04
412.519	12
412.893	25.65
413.267	13.17
413.641	6.53
414.015	57.64
414.389	12
414.763	0.29
415.137	6.14
415.51	23.7
415.884	-2.44
416.258	20.97
416.631	10.04
417.005	26.04
417.379	15.12
417.752	2.24
418.126	47.49
418.499	19.8
418.872	28.38
419.246	-3.61
419.619	-1.27
419.992	10.43
420.366	43.98
420.739	11.22
421.112	-26.23
421.485	43.98
421.858	-16.09
422.231	40.08
422.604	10.04
422.977	1.46
423.35	-21.16
423.723	37.35
424.096	16.29
424.469	4.97
424.842	13.56
425.214	16.68
425.587	45.93
425.96	6.92
426.332	27.21
426.705	-56.27
427.078	15.12
427.45	-6.34
427.823	38.13
428.195	32.67
428.567	23.31
428.94	29.94
429.312	14.73
429.684	27.21
430.057	29.94
430.429	34.62
430.801	11.22
431.173	-16.87
431.545	-22.33
431.917	35.4
432.289	62.32
432.661	13.95
433.033	41.64
433.405	55.69
433.777	9.65
434.149	2.24
434.52	24.09
434.892	-0.88
435.264	30.33
435.635	-18.04
436.007	8.87
436.379	8.48
436.75	12.39
437.122	1.46
437.493	31.11
437.864	3.41
438.236	42.42
438.607	1.07
438.978	53.34
439.35	8.48
439.721	14.73
440.092	8.09
440.463	43.98
440.834	15.9
441.205	38.52
441.576	4.97
441.947	-21.16
442.318	53.34
442.689	20.58
443.06	7.31
443.431	15.12
443.802	31.5
444.172	5.75
444.543	19.8
444.914	20.58
445.284	29.94
445.655	52.17
446.025	26.04
446.396	26.04
446.766	31.89
447.137	-5.17
447.507	20.58
447.878	43.59
448.248	16.68
448.618	17.46
448.988	26.04
449.359	52.95
449.729	57.25
450.099	89.23
450.469	69.73
450.839	88.06
451.209	127.46
451.579	57.25
451.949	74.41
452.319	126.29
452.688	95.47
453.058	141.11
453.428	147.36
453.798	163.74
454.167	141.11
454.537	175.44
454.906	141.5
455.276	150.09
455.645	191.05
456.015	219.13
456.384	161.01
456.754	182.07
457.123	192.22
457.492	222.64
457.862	252.68
458.231	242.15
458.6	234.74
458.969	239.42
459.338	248.78
459.707	283.5
460.076	292.47
460.445	319.78
460.814	346.3
461.183	329.53
461.552	394.67
461.921	350.2
462.29	400.91
462.658	437.19
463.027	407.55
463.396	456.31
463.764	439.92
464.133	482.05
464.501	450.46
464.87	501.17
465.238	530.03
465.607	572.55
465.975	585.43
466.344	542.91
466.712	551.1
467.08	620.92
467.448	639.65
467.817	657.59
468.185	620.92
468.553	671.25
468.921	680.22
469.289	693.87
469.657	686.07
470.025	694.26
470.393	707.91
470.76	677.1
471.128	730.93
471.496	755.9
471.864	732.88
472.231	715.72
472.599	755.9
472.967	737.17
473.334	756.29
473.702	712.99
474.069	748.48
474.437	723.13
474.804	732.1
475.172	768.77
475.539	722.35
475.906	709.86
476.273	715.33
476.641	652.91
477.008	669.3
477.375	724.69
477.742	668.91
478.109	676.71
478.476	623.27
478.843	641.6
479.21	643.94
479.577	634.58
479.944	630.29
480.31	607.66
480.677	634.58
481.044	606.49
481.411	553.83
481.777	581.14
482.144	525.74
482.51	517.16
482.877	620.53
483.243	531.59
483.61	555.78
483.976	505.07
484.342	598.69
484.709	582.31
485.075	592.06
485.441	579.97
485.807	585.82
486.174	585.04
486.54	632.24
486.906	604.93
487.272	643.16
487.638	613.12
488.004	563.97
488.37	555.39
488.735	602.59
489.101	552.27
489.467	551.1
489.833	519.11
490.198	563.58
490.564	588.94
490.93	617.02
491.295	649.01
491.661	678.27
492.026	742.24
492.392	798.81
492.757	879.16
493.122	938.85
493.488	973.18
493.853	1062.51
494.218	1167.83
494.584	1297.34
494.949	1326.99
495.314	1418.66
495.679	1516.57
496.044	1711.22
496.409	1780.27
496.774	1867.65
497.139	2019.39
497.504	2212.1
497.868	2247.99
498.233	2498.42
498.598	2677.09
498.963	2863.55
499.327	2956.39
499.692	3155.72
500.057	3461.55
500.421	3607.84
500.786	3835.26
501.15	4084.14
501.514	4300.25
501.879	4566.68
502.243	4844.81
502.607	5156.88
502.972	5424.09
503.336	5706.91
503.7	6145.37
504.064	6399.32
504.428	6711.39
504.792	7110.84
505.156	7448.66
505.52	7845.38
505.884	8275.26
506.248	8660.27
506.612	8987.95
506.976	9452.55
507.339	9844.98
507.703	10319.32
508.067	10682.89
508.43	11209.9
508.794	11674.1
509.158	12084.87
509.521	12612.66
509.885	12958.28
510.248	13386.99
510.611	13847.29
510.975	14203.44
511.338	14859.96
511.701	15273.07
512.064	15665.5
512.428	16048.57
512.791	16640.72
513.154	17267.2
513.517	17566.01
513.88	17908.9
514.243	18401.19
514.606	18800.26
514.969	19033.92
515.331	19397.09
515.694	19913.57
516.057	20256.46
516.42	20528.74
516.782	20797.51
517.145	21052.24
517.508	21367.82
517.87	21682.63
518.233	21977.14
518.595	22169.46
518.958	22543.55
519.32	22438.62
519.682	22684.76
520.045	22967.58
520.407	23042.09
520.769	23302.28
521.131	23198.9
521.493	23308.13
521.855	23464.16
522.217	23509.02
522.579	23438.81
522.941	23621.76
523.303	23604.6
523.665	23645.94
524.027	23487.18
524.389	23290.96
524.751	23400.58
525.112	23610.45
525.474	23440.37
525.835	23335.43
526.197	23273.02
526.559	22990.59
526.92	23126.35
527.282	22936.76
527.643	22845.09
528.004	22542.77
528.366	22406.63
528.727	22374.64
529.088	22080.13
529.449	22043.85
529.811	21927.99
530.172	21877.28
530.533	21620.99
530.894	21541.8
531.255	21130.65
531.616	21203.21
531.977	21069.8
532.337	20892.3
532.698	20405.08
533.059	20449.55
533.42	20454.23
533.78	20077.41
534.141	19940.1
534.502	19865.2
534.862	19566
535.223	19287.87
535.583	19387.34
535.944	19065.91
536.304	18890.76
536.664	18729.65
537.025	18544.75
537.385	18558.01
537.745	18244.77
538.105	18130.86
538.466	18126.96
538.826	17808.26
539.186	17641.69
539.546	17511.01
539.906	17534.42
540.266	17365.9
540.626	17117.8
540.985	17122.48
541.345	17083.47
541.705	16797.15
542.065	16739.8
542.424	16613.42
542.784	16343.08
543.144	16328.65
543.503	16248.29
543.863	16176.52
544.222	16046.62
544.581	16071.19
544.941	16045.05
545.3	15669.79
545.659	15451.34
546.019	15438.47
546.378	15528.58
546.737	15144.73
547.096	15260.2
547.455	15112.35
547.814	14861.52
548.173	14882.98
548.532	14659.85
548.891	14753.86
549.25	14624.35
549.609	14598.6
549.968	14344.27
550.326	14260.01
550.685	14191.35
551.044	13988.5
551.402	13934.67
551.761	13931.94
552.119	13776.69
552.478	13702.57
552.836	13551.6
553.195	13423.65
553.553	13403.37
553.911	13409.22
554.27	13150.98
554.628	13079.6
554.986	13008.21
555.344	12900.16
555.702	12815.12
556.06	12722.66
556.418	12527.23
556.776	12554.15
557.134	12423.86
557.492	12142.99
557.85	12175.76
558.208	12013.09
558.565	11997.49
558.923	11910.11
559.281	11694.78
559.638	11641.73
559.996	11458
560.353	11455.26
560.711	11391.29
561.068	11199.37
561.426	11076.88
561.783	10903.68
562.141	10824.49
562.498	10762.47
562.855	10601.36
563.212	10577.95
563.569	10473.41
563.926	10311.13
564.283	10137.93
564.641	9944.06
564.997	9943.67
565.354	9829.37
565.711	9764.23
566.068	9666.31
566.425	9529
566.782	9430.31
567.138	9280.13
567.495	9098.74
567.852	9055.44
568.208	9089.37
568.565	8924.37
568.921	8785.1
569.278	8558.46
569.634	8527.25
569.991	8391.11
570.347	8298.27
570.703	8238.59
571.059	8215.18
571.416	7995.95
571.772	7884.78
572.128	7792.33
572.484	7679.59
572.84	7592.6
573.196	7471.67
573.552	7337.87
573.908	7230.6
574.263	7214.21
574.619	7029.31
574.975	6963
575.331	6902.14
575.686	6743.77
576.042	6728.16
576.398	6655.22
576.753	6587.34
577.109	6448.08
577.464	6327.54
577.82	6327.15
578.175	6205.05
578.53	6088.81
578.885	6029.9
579.241	5951.49
579.596	5862.94
579.951	5776.73
580.306	5677.65
580.661	5611.34
581.016	5604.71
581.371	5453.35
581.726	5440.48
582.081	5332.81
582.436	5335.54
582.791	5201.35
583.145	5080.43
583.5	5083.94
583.855	5011.38
584.209	4866.27
584.564	4822.58
584.918	4822.19
585.273	4718.81
585.627	4690.34
585.982	4641.18
586.336	4634.16
586.69	4567.07
587.045	4457.84
587.399	4514.02
587.753	4372.02
588.107	4349.01
588.461	4229.64
588.815	4244.07
589.169	4150.06
589.523	4110.27
589.877	4077.12
590.231	4017.82
590.585	3969.06
590.939	3911.33
591.293	3944.1
591.646	3785.33
592	3784.94
592.354	3745.15
592.707	3705.75
593.061	3721.74
593.414	3621.1
593.768	3559.08
594.121	3559.47
594.474	3469.36
594.828	3435.42
595.181	3408.89
595.534	3408.5
595.887	3329.31
596.24	3294.99
596.593	3206.44
596.946	3189.27
597.299	3248.18
597.652	3129.98
598.005	3132.71
598.358	3068.34
598.711	3065.61
599.064	2981.74
599.416	2954.44
599.769	3002.03
600.122	2925.18
600.474	2902.17
600.827	2863.55
601.179	2814.79
601.532	2752.37
601.884	2735.6
602.237	2755.1
602.589	2702.05
602.941	2688.01
603.294	2611.55
603.646	2604.14
603.998	2566.3
604.35	2567.47
604.702	2465.27
605.054	2481.65
605.406	2435.62
605.758	2421.19
606.11	2417.68
606.462	2336.54
606.813	2299.09
607.165	2336.15
607.517	2288.17
607.869	2253.06
608.22	2168.8
608.572	2179.33
608.923	2233.94
609.275	2170.75
609.626	2160.22
609.978	2107.16
610.329	2026.42
610.68	2015.49
611.031	2035.78
611.383	1981.56
611.734	2010.03
612.085	2008.47
612.436	1929.67
612.787	1888.32
613.138	1835.66
613.489	1859.07
613.84	1791.58
614.191	1829.42
614.542	1786.9
614.892	1706.15
615.243	1733.85
615.594	1701.47
615.944	1696.01
616.295	1662.85
616.646	1643.35
616.996	1592.64
617.347	1593.03
617.697	1606.68
618.047	1584.45
618.398	1550.12
618.748	1546.22
619.098	1489.65
619.448	1514.62
619.798	1471.71
620.149	1456.89
620.499	1452.59
620.849	1367.17
621.199	1376.53
621.548	1377.31
621.898	1361.31
622.248	1300.85
622.598	1379.65
622.948	1292.66
623.297	1261.45
623.647	1266.52
623.997	1221.27
624.346	1262.62
624.696	1214.64
625.045	1177.58
625.395	1174.46
625.744	1131.55
626.093	1158.86
626.443	1158.08
626.792	1134.67
627.141	1113.61
627.49	1113.22
627.839	1107.37
628.188	1043
628.537	1056.26
628.886	1087.86
629.235	1048.46
629.584	1028.57
629.933	973.18
630.282	983.71
630.63	988.78
630.979	947.43
631.328	925.97
631.676	966.15
632.025	933.78
632.374	895.55
632.722	921.68
633.07	934.95
633.419	836.25
633.767	825.72
634.115	871.75
634.464	856.93
634.812	817.53
635.16	796.07
635.508	798.03
635.856	802.32
636.204	828.06
636.552	775.79
636.9	821.82
637.248	735.61
637.596	759.8
637.944	741.85
638.291	783.98
638.639	717.28
638.987	699.72
639.334	700.89
639.682	700.5
640.029	716.5
640.377	656.03
640.724	644.72
641.072	643.16
641.419	670.08
641.766	649.4
642.114	665.39
642.461	647.45
642.808	616.63
643.155	567.48
643.502	613.51
643.849	570.6
644.196	579.97
644.543	613.12
644.89	571.38
645.237	611.56
645.584	572.16
645.93	572.94
646.277	513.26
646.624	531.98
646.97	557.34
647.317	535.1
647.663	544.47
648.01	522.62
648.356	512.48
648.703	504.29
649.049	521.45
649.395	524.57
649.741	479.71
650.088	504.29
650.434	501.17
650.78	466.45
651.126	490.24
651.472	426.66
651.818	416.52
652.164	420.03
652.51	465.28
652.855	444.21
653.201	429.78
653.547	413.01
653.893	406.38
654.238	464.11
654.584	411.84
654.929	422.37
655.275	370.1
655.62	422.76
655.966	384.14
656.311	381.8
656.657	410.67
657.002	417.69
657.347	389.99
657.692	429
658.037	355.27
658.382	388.04
658.728	380.24
659.073	326.41
659.417	350.2
659.762	349.81
660.107	363.08
660.452	347.47
660.797	293.25
661.142	365.03
661.486	333.43
661.831	281.94
662.175	313.92
662.52	311.19
662.864	288.18
663.209	317.05
663.553	322.51
663.898	322.9
664.242	335.77
664.586	288.96
664.93	274.14
665.275	313.14
665.619	288.96
665.963	258.14
666.307	274.14
666.651	273.75
666.995	271.01
667.339	255.41
667.682	255.41
668.026	254.63
668.37	227.32
668.714	260.09
669.057	257.36
669.401	235.91
669.745	252.68
670.088	247.61
670.432	219.52
670.775	243.32
671.118	214.45
671.462	220.3
671.805	173.1
672.148	219.52
672.491	258.14
672.835	216.4
673.178	219.52
673.521	229.27
673.864	255.02
674.207	242.54
674.55	214.06
674.892	208.21
675.235	169.59
675.578	193
675.921	191.05
676.263	169.2
676.606	175.44
676.949	193.78
677.291	145.02
677.634	201.97
677.976	206.65
678.319	171.54
678.661	191.44
679.003	202.75
679.346	185.98
679.688	163.74
680.03	163.35
680.372	162.57
680.714	163.35
681.056	178.56
681.398	179.34
681.74	152.82
682.082	153.6
682.424	136.82
682.766	145.8
683.107	173.1
683.449	141.89
683.791	133.31
684.132	167.64
684.474	120.05
684.815	152.82
685.157	136.82
685.498	142.68
685.84	95.08
686.181	123.56
686.522	148.53
686.863	111.86
687.205	125.51
687.546	123.95
687.887	177.78
688.228	141.11
688.569	129.41
688.91	159.06
689.251	126.29
689.592	123.17
689.932	81.04
690.273	117.71
690.614	132.14
690.954	129.41
691.295	142.68
691.636	127.07
691.976	132.53
692.317	118.1
692.657	99.77
692.997	100.55
693.338	99.38
693.678	79.87
694.018	146.97
694.359	107.57
694.699	111.47
695.039	139.94
695.379	123.17
695.719	114.98
696.059	115.76
696.399	109.52
696.739	98.6
697.078	118.88
697.418	101.33
697.758	46.71
698.098	98.99
698.437	82.99
698.777	114.2
699.116	84.94
699.456	81.43
699.795	106.01
700.135	128.24
700.474	93.13
700.813	56.08
701.153	120.44
701.492	128.24
701.831	69.34
702.17	116.15
702.509	68.95
702.848	60.37
703.187	88.06
703.526	81.04
703.865	86.5
704.204	90.4
704.542	86.5
704.881	80.26
705.22	66.22
705.558	45.15
705.897	97.81
706.236	88.84
706.574	87.67
706.912	70.51
707.251	86.89
707.589	40.08
707.928	11.61
708.266	51.39
708.604	23.7
708.942	81.82
709.28	46.71
709.618	35.4
709.956	79.09
710.294	58.03
710.632	24.87
710.97	89.23
711.308	79.87
711.646	88.84
711.983	17.46
712.321	68.56
712.659	77.53
712.996	44.37
713.334	43.98
713.671	73.24
714.009	53.73
714.346	31.11
714.683	18.63
715.021	47.88
715.358	17.85
715.695	27.6
716.032	54.51
716.369	47.88
716.707	62.71
717.044	66.61
717.38	52.56
717.717	83.77
718.054	59.2
718.391	31.11
718.728	60.37
719.065	25.26
719.401	36.18
719.738	49.44
720.074	53.73
720.411	54.12
720.747	41.64
721.084	89.23
721.42	48.66
721.757	30.33
722.093	62.32
722.429	43.2
722.765	33.45
723.101	65.83
723.438	20.58
723.774	56.86
724.11	32.28
724.446	41.64
724.781	49.44
725.117	15.51
725.453	18.63
725.789	37.35
726.125	31.89
726.46	34.62
726.796	41.25
727.131	28.77
727.467	18.24
727.802	6.92
728.138	40.08
728.473	84.16
728.809	42.81
729.144	71.29
729.479	35.4
729.814	26.43
730.149	47.88
730.484	36.57
730.819	26.04
731.154	29.55
731.489	40.86
731.824	58.03
732.159	69.34
732.494	53.73
732.829	44.76
733.163	9.26
733.498	17.07
733.833	7.7
734.167	23.7
734.502	57.25
734.836	31.5
735.171	27.99
735.505	34.62
735.839	89.23
736.173	38.91
736.508	72.85
736.842	38.52
737.176	26.82
737.51	49.83
737.844	40.86
738.178	44.76
738.512	32.28
738.846	35.4
739.18	38.52
739.513	18.24
739.847	54.12
740.181	-4.78
740.514	29.55
740.848	40.47
741.181	24.09
741.515	21.75
741.848	24.09
742.182	65.44
742.515	44.76
742.848	54.91
743.182	55.3
743.515	19.8
743.848	43.59
744.181	26.43
744.514	19.8
744.847	34.23
745.18	35.4
745.513	15.12
745.846	3.41
746.179	34.62
746.511	-0.1
746.844	31.5
747.177	22.14
747.509	42.03
747.842	44.37
748.174	46.32
748.507	38.91
748.839	12.39
749.172	6.14
749.504	59.98
749.836	6.92
750.168	9.65
750.501	25.65
750.833	27.99
751.165	37.74
751.497	-14.53
751.829	16.29
752.161	-16.09
752.492	16.29
752.824	26.43
753.156	1.46
753.488	33.45
753.819	27.99
754.151	12
754.483	-5.95
754.814	35.79
755.146	38.13
755.477	-24.28
755.808	65.05
756.14	21.36
756.471	30.72
756.802	17.85
757.134	33.06
757.465	13.95
757.796	-3.61
758.127	7.31
758.458	4.19
758.789	-1.27
759.12	24.48
759.45	11.22
759.781	22.53
760.112	29.94
760.443	13.95
760.773	26.04
761.104	28.38
761.434	36.57
761.765	9.65
762.095	26.82
762.426	1.07
762.756	-14.14
763.086	23.31
763.417	54.12
763.747	4.97
764.077	38.13
764.407	13.56
764.737	17.46
765.067	43.98
765.397	-3.61
765.727	0.29
766.057	31.89
766.387	19.8
766.716	40.08
767.046	19.8
767.376	11.61
767.705	17.46
768.035	-19.99
768.364	30.72
768.694	-4.78
769.023	17.85
769.353	-17.65
769.682	-0.49
770.011	22.92
770.34	-11.41
770.669	28.38
770.999	21.36
771.328	-4.78
771.657	-15.31
771.986	21.75
772.315	-10.63
772.643	45.15
772.972	15.51
773.301	3.8
773.63	16.29
773.958	38.91
774.287	17.85
774.615	13.56
774.944	-21.16
775.272	24.09
775.601	-11.41
775.929	10.43
776.258	31.5
776.586	-4
776.914	50.61
777.242	51
777.57	34.62
777.898	16.68
778.226	20.58
778.554	-9.46
778.882	16.68
779.21	-10.63
779.538	-4.78
779.866	4.97
780.193	25.65
780.521	16.68
780.849	14.73
781.176	37.74
781.504	1.85
781.831	49.83
782.159	23.31
782.486	14.73
782.813	16.29
783.141	43.98
783.468	-3.61
783.795	13.56
784.122	-3.22
784.449	5.36
784.776	55.3
785.103	42.03
785.43	16.29
785.757	6.92
786.084	20.58
786.41	-0.49
786.737	15.9
787.064	22.53
787.39	-1.27
787.717	52.56
788.043	16.29
788.37	67
788.696	39.69
789.023	19.8
789.349	12.39
789.675	-14.92
790.001	26.43
790.328	11.61
790.654	0.68
790.98	13.95
791.306	-8.68
791.632	-11.02
791.958	20.19
792.283	23.31
792.609	6.14
792.935	16.29
793.261	16.68
793.586	42.03
793.912	47.1
794.238	4.19
794.563	-36.38
794.889	16.68
795.214	20.19
795.539	-2.05
795.865	9.26
796.19	46.32
796.515	29.55
796.84	32.67
797.165	19.02
797.49	32.28
797.815	9.26
798.14	19.8
798.465	2.24
798.79	21.36
799.115	46.71
799.44	-5.95
799.764	5.75
800.089	-14.92
800.414	19.8
800.738	40.08
801.063	50.22
801.387	18.24
801.711	58.03
802.036	4.97
802.36	47.1
802.684	15.9
803.008	37.35
803.333	78.31
803.657	20.58
803.981	19.02
804.305	35.4
804.629	12.78
804.953	-11.41
805.276	52.56
805.6	-5.17
805.924	1.46
806.248	5.36
806.571	33.84
806.895	10.43
807.218	5.75
807.542	17.46
807.865	13.17
808.189	-16.09
808.512	31.5
808.835	-3.22
809.158	17.85
809.482	10.43
809.805	3.41
810.128	-0.1
810.451	1.07
810.774	13.56
811.097	35.01
811.42	10.82
811.742	-1.27
812.065	-11.8
812.388	-21.55
812.711	30.33
813.033	23.31
813.356	53.34
813.678	11.61
814.001	10.43
814.323	24.09
814.645	-9.07
814.968	37.35
815.29	28.38
815.612	23.31
815.934	-18.43
816.256	9.26
816.578	12.39
816.9	51.78
817.222	7.31
817.544	-38.72
817.866	-21.16
818.188	22.53
818.51	9.26
818.831	30.72
819.153	-27.01
819.475	-15.7
819.796	-38.72
820.118	7.7
820.439	27.99
820.761	-14.92
821.082	-11.41
821.403	-27.79
821.724	12.78
822.046	24.48
822.367	35.4
822.688	14.34
823.009	23.7
823.33	13.17
823.651	24.48
823.972	-18.04
824.292	10.82
824.613	19.41
824.934	36.18
825.255	-2.44
825.575	7.31
825.896	32.28
826.216	8.09
826.537	16.68
826.857	36.96
827.177	0.29
827.498	26.04
827.818	-13.75
828.138	-11.8
828.458	9.26
828.778	30.72
829.098	20.97
829.418	21.75
829.738	20.97
830.058	29.94
830.378	15.12
830.698	32.28
831.018	0.29
831.337	14.34
831.657	15.12
831.977	8.09
832.296	-2.83
832.616	31.11
832.935	30.72
833.254	-17.65
833.574	24.09
833.893	-3.61
834.212	43.98
834.531	9.65
834.851	-9.46
835.17	23.31
835.489	41.64
835.808	13.17
836.127	0.29
836.445	-18.04
836.764	24.48
837.083	19.8
837.402	15.12
837.72	1.46
838.039	22.53
838.357	19.8
838.676	4.58
838.994	25.65
839.313	9.26
839.631	-23.11
839.949	11.61
840.268	38.91
840.586	43.2
840.904	-2.44
841.222	29.16
841.54	-9.46
841.858	16.29
842.176	39.3
842.494	14.34
842.812	8.09
843.129	-12.97
843.447	-7.51
843.765	36.57
844.082	31.5
844.4	-1.66
844.718	-23.11
845.035	19.02
845.352	5.36
845.67	36.96
845.987	-0.88
846.304	-12.19
846.621	18.63
846.939	22.92
847.256	12
847.573	5.75
847.89	47.88
848.207	16.68
848.524	3.8
848.84	1.07
849.157	-18.82
849.474	-19.21
849.791	13.56
850.107	22.92
850.424	-6.73
850.74	1.07
851.057	30.72
851.373	28.38
851.69	-1.66
852.006	-46.52
852.322	-8.68
852.638	12.78
852.954	5.75
853.271	21.36
853.587	14.73
853.903	10.04
854.219	1.46
854.534	27.21
854.85	73.24
855.166	12.78
855.482	1.46
855.797	19.41
856.113	17.85
856.429	-5.17
856.744	-1.66
857.06	20.97
857.375	15.9
857.69	2.24
858.006	-5.17
858.321	8.48
858.636	-20.77
858.951	-2.83
859.266	-28.96
859.582	12.39
859.897	36.96
860.211	12.39
860.526	22.92
860.841	25.65
861.156	24.09
861.471	1.46
861.785	-14.53
862.1	-7.12
862.415	10.82
862.729	47.49
863.044	0.29
863.358	25.65
863.672	4.58
863.987	44.37
864.301	-0.49
864.615	40.86
864.929	7.31
865.243	1.85
865.557	4.97
865.871	-17.65
866.185	-0.49
866.499	20.19
866.813	17.07
867.127	9.65
867.441	20.97
867.754	30.33
868.068	27.99
868.382	27.21
868.695	18.63
869.009	24.87
869.322	-4.39
869.635	-12.58
869.949	33.06
870.262	47.1
870.575	-29.35
870.888	18.63
871.201	9.65
871.514	-21.55
871.827	-0.49
872.14	-0.49
872.453	0.68
872.766	3.8
873.079	50.61
873.392	15.12
873.704	20.97
874.017	29.55
874.329	8.09
874.642	31.89
874.954	6.92
875.267	1.85
875.579	1.46
875.891	23.31
876.204	4.58
876.516	-25.45
876.828	27.21
877.14	0.29
877.452	15.12
877.764	4.97
878.076	-2.83
878.388	-3.61
878.7	-19.21
879.012	30.72
879.323	1.85
879.635	-2.44
879.947	-5.95
880.258	18.63
880.57	41.25
880.881	-17.26
881.192	30.33
881.504	23.31
881.815	13.56
882.126	21.36
882.438	30.72
882.749	6.92
883.06	1.07
883.371	-21.16
883.682	20.19
883.993	7.7
884.303	0.29
884.614	40.86
884.925	-26.23
885.236	-10.24
885.546	-4
885.857	44.76
886.168	31.5
886.478	19.41
886.788	6.92
887.099	-9.46
887.409	22.92
887.719	44.37
888.03	9.65
888.34	-20.38
888.65	4.97
888.96	-37.55
889.27	41.25
889.58	10.43
889.89	2.63
890.2	13.17
890.51	12.78
890.819	0.68
891.129	28.38
891.439	9.65
891.748	10.43
892.058	23.7
892.367	27.21
892.677	-4.78
892.986	14.34
893.295	10.43
893.604	0.68
893.914	42.42
894.223	7.31
894.532	6.92
894.841	42.81
895.15	-6.73
895.459	48.27
895.768	8.09
896.077	-15.31
896.385	-17.26
896.694	24.09
897.003	9.65
897.311	21.75
897.62	35.4
897.928	18.24
898.237	44.76
898.545	26.43
898.854	-2.05
899.162	-23.5
899.47	9.26
899.778	46.32
900.086	-3.22
900.395	1.07
900.703	-2.05
901.01	34.23
901.318	-24.28
901.626	29.94
901.934	49.44
902.242	32.67
902.549	-12.19
902.857	-11.8
903.165	8.87
903.472	-23.5
903.78	17.85
904.087	59.2
904.395	29.94
904.702	-15.31
905.009	-14.14
905.316	14.34
905.623	-28.18
905.931	22.92
906.238	12.78
906.545	15.9
906.852	-18.82
907.158	-7.9
907.465	31.89
907.772	-1.27
908.079	15.51
908.385	-11.8
908.692	24.48
908.999	5.75
909.305	21.36
909.611	14.73
909.918	-18.82
910.224	26.82
910.53	14.73
910.837	-6.34
911.143	3.41
911.449	19.02
911.755	-19.21
912.061	-0.88
912.367	33.06
912.673	6.92
912.979	-5.56
913.285	-14.92
913.59	28.77
913.896	40.86
914.202	10.43
914.507	-31.69
914.813	-9.46
915.118	-5.95
915.424	27.21
915.729	-26.23
916.034	37.35
916.34	19.41
916.645	-14.92
916.95	36.57
917.255	3.41
917.56	24.48
917.865	31.89
918.17	14.73
918.475	-21.16
918.78	-14.53
919.084	36.18
919.389	20.97
919.694	5.36
919.998	8.48
920.303	0.68
920.607	-14.92
920.912	-2.05
921.216	14.73
921.52	12.39
921.825	26.43
922.129	19.8
922.433	9.65
922.737	3.41
923.041	-6.73
923.345	8.09
923.649	51
923.953	16.68
924.257	-25.45
924.561	32.28
924.864	47.88
925.168	6.92
925.472	27.6
925.775	4.58
926.079	17.46
926.382	-3.22
926.686	51.39
926.989	20.19
927.292	22.14
927.595	52.17
927.899	8.87
928.202	8.09
928.505	-12.58
928.808	-8.68
929.111	27.6
929.414	-0.49
929.716	33.45
930.019	10.82
930.322	-2.44
930.625	0.68
930.927	15.51
931.23	14.34
931.532	11.61
931.835	10.43
932.137	20.58
932.439	-41.06
932.742	23.31
933.044	-6.73
933.346	6.53
933.648	-5.95
933.95	11.61
934.252	6.92
934.554	29.55
934.856	8.09
935.158	1.07
935.46	19.41
935.762	20.58
936.063	19.8
936.365	-8.68
936.667	10.43
936.968	19.41
937.269	19.41
937.571	37.74
937.872	-0.88
938.174	25.65
938.475	-11.8
938.776	13.56
939.077	-8.68
939.378	8.48
939.679	-16.48
939.98	-17.65
940.281	-28.18
940.582	-20.77
940.883	5.75
941.183	29.94
941.484	-11.41
941.785	15.12
942.085	-15.31
942.386	2.24
942.686	-30.52
942.987	20.97
943.287	-15.7
943.587	20.19
943.888	35.01
944.188	24.09
944.488	13.17
944.788	36.57
945.088	-7.51
945.388	-0.1
945.688	-31.3
945.988	-0.88
946.288	33.84
946.587	-6.34
946.887	-6.73
947.187	13.17
947.486	27.6
947.786	-1.27
948.085	38.91
948.385	41.25
948.684	-9.85
948.983	0.68
949.283	-1.27
949.582	24.09
949.881	-36.38
950.18	1.85
950.479	16.68
950.778	10.04
951.077	-0.49
951.376	22.14
951.674	-4.78
951.973	8.87
952.272	-4
952.57	8.09
952.869	22.14
953.168	-4.78
953.466	-1.66
953.764	5.36
954.063	26.04
954.361	24.87
954.659	19.41
954.958	40.47
955.256	-22.72
955.554	-4
955.852	-17.26
956.15	-4.78
956.448	-7.51
956.745	4.97
957.043	-7.12
957.341	14.34
957.639	-4.78
957.936	-29.74
958.234	12
958.531	-19.99
958.829	10.43
959.126	26.04
959.424	6.92
959.721	1.07
960.018	-2.83
960.315	-11.02
960.612	22.92
960.909	36.96
961.206	15.12
961.503	32.67
961.8	31.5
962.097	28.77
962.394	8.48
962.691	-2.83
962.987	-5.56
963.284	-16.09
963.58	-9.46
963.877	13.95
964.173	22.53
964.47	-16.87
964.766	-4
965.062	9.65
965.359	-0.88
965.655	32.67
965.951	-5.56
966.247	-9.85
966.543	46.71
966.839	24.48
967.135	-19.21
967.431	3.41
967.726	26.82
968.022	-11.8
968.318	6.14
968.613	32.67
968.909	8.87
969.204	-30.91
969.5	13.95
969.795	-8.68
970.09	56.47
970.386	-0.88
970.681	32.67
970.976	29.94
971.271	42.81
971.566	-36.77
971.861	-21.16
972.156	-9.85
972.451	11.61
972.746	38.91
973.041	31.5
973.335	24.48
973.63	11.61
973.924	-35.99
974.219	-21.16
974.513	-4.39
974.808	22.92
975.102	15.12
975.396	-3.61
975.691	3.41
975.985	9.26
976.279	-47.3
976.573	11.61
976.867	-37.55
977.161	-18.04
977.455	-2.44
977.749	15.51
978.043	-3.22
978.336	22.53
978.63	13.95
978.924	-9.85
979.217	13.56
979.511	27.99
979.804	13.17
980.098	38.13
980.391	3.02
980.684	13.95
980.977	52.56
981.271	-21.55
981.564	-16.87
981.857	-1.66
982.15	8.48
982.443	-2.05
982.736	-1.66
983.028	9.65
983.321	-4
983.614	21.36
983.907	15.51
984.199	-28.96
984.492	5.36
984.784	19.41
985.077	7.7
985.369	19.8
985.661	10.43
985.953	33.06
986.246	3.41
986.538	39.3
986.83	-13.36
987.122	-19.99
987.414	33.06
987.706	15.51
987.998	-19.6
988.289	5.75
988.581	-20.38
988.873	5.36
989.165	-11.02
989.456	-6.34
989.748	9.65
990.039	17.46
990.33	10.82
990.622	-11.8
990.913	-6.34
991.204	-12.58
991.495	37.35
991.787	6.14
992.078	-21.16
992.369	-20.38
992.66	8.09
992.95	26.82
993.241	-29.35
993.532	-2.05
993.823	0.29
994.113	-15.7
994.404	15.51
994.695	16.29
994.985	2.63
995.275	7.31
995.566	-19.6
995.856	12
996.146	-2.83
996.437	22.14
996.727	-24.28
997.017	-2.05
997.307	-0.88
997.597	19.02
997.887	-22.33
998.177	19.41
998.466	-6.34
998.756	23.7
999.046	36.57
999.335	3.02
999.625	-9.07
999.914	34.62
1000.204	-18.04
1000.493	-7.12
1000.783	-33.65
1001.072	8.09
1001.361	13.95
1001.65	-11.41
1001.939	15.12
1002.228	10.43
1002.517	-15.31
1002.806	0.68
1003.095	24.87
1003.384	-10.24
1003.673	3.41
1003.961	5.75
1004.25	4.58
1004.539	6.53
1004.827	-28.18
1005.116	6.53
1005.404	5.36
1005.692	17.07
1005.981	-29.35
1006.269	-4.39
1006.557	20.58
1006.845	15.12
1007.133	-4.78
1007.421	19.8
1007.709	16.68
1007.997	27.21
1008.285	27.21
1008.573	15.51
1008.86	1.46
1009.148	16.29
1009.436	3.41
1009.723	-1.66
1010.011	22.92
1010.298	9.26
1010.586	25.26
1010.873	-30.52
1011.16	29.16
1011.447	-19.6
1011.734	13.95
1012.022	22.14
1012.309	-7.51
1012.595	18.63
1012.882	-3.22
1013.169	-16.09
1013.456	-4.39
1013.743	-18.04
1014.029	8.48
1014.316	13.95
1014.603	40.47
1014.889	27.6
1015.176	-4
1015.462	20.58
1015.748	0.68
1016.035	34.23
1016.321	-25.45
1016.607	-8.29
1016.893	6.14
1017.179	33.06
1017.465	-3.61
1017.751	24.09
1018.037	15.9
1018.323	13.17
1018.608	17.07
1018.894	19.8
1019.18	-20.38
1019.465	4.19
1019.751	-14.92
1020.036	23.31
1020.322	10.82
1020.607	2.63
1020.892	-10.63
1021.177	17.85
1021.463	44.37
1021.748	-2.83
1022.033	-1.27
1022.318	-4.39
1022.603	6.92
1022.887	-7.12
1023.172	-12.58
1023.457	-2.44
1023.742	2.24
1024.026	28.77
1024.311	-9.46
1024.595	-1.27
1024.88	-11.8
1025.164	13.17
1025.449	29.94
1025.733	13.17
1026.017	-13.75
1026.301	-4
1026.585	14.34
1026.869	6.14
1027.153	6.92
1027.437	6.92
1027.721	6.92
