Data from Subt10_15-13-25-331.txt Node
Date: Thu Nov 26 15:13:25 GMT 2020
User: ajs39
Spectrometer: USB2+H09984
Trigger mode: 0
Integration Time (sec): 1.000000E0
Scans to average: 1
Electric dark correction enabled: true
Nonlinearity correction enabled: false
Boxcar width: 0
XAxis mode: Wavelengths
Number of Pixels in Spectrum: 2048
>>>>>Begin Spectral Data<<<<<
339.236	-55.88
339.617	-55.88
339.998	-55.88
340.38	-39.5
340.761	-62.9
341.142	47.1
341.523	-39.5
341.905	-4.39
342.286	-34.82
342.667	21.36
343.048	-4.39
343.429	49.44
343.81	-18.43
344.191	-58.22
344.571	-48.86
344.952	51.78
345.333	-51.2
345.714	-27.79
346.095	51.78
346.475	63.49
346.856	68.17
347.237	-18.43
347.617	-4.39
347.998	23.7
348.378	4.97
348.759	37.74
349.139	-39.5
349.52	40.08
349.9	-37.16
350.28	-9.07
350.661	-27.79
351.041	28.38
351.421	-48.86
351.801	-11.41
352.181	65.83
352.561	-44.18
352.942	-86.31
353.322	-41.84
353.702	61.15
354.082	7.31
354.461	-86.31
354.841	58.81
355.221	21.36
355.601	54.12
355.981	51.78
356.36	-4.39
356.74	-16.09
357.12	-32.47
357.499	54.12
357.879	26.04
358.259	7.31
358.638	16.68
359.018	79.87
359.397	-55.88
359.776	-37.16
360.156	30.72
360.535	-25.45
360.914	-53.54
361.294	-65.24
361.673	19.02
362.052	33.06
362.431	-44.18
362.81	-39.5
363.189	47.1
363.568	-48.86
363.947	-53.54
364.326	72.85
364.705	16.68
365.084	-9.07
365.463	-32.47
365.842	-25.45
366.22	7.31
366.599	79.87
366.978	65.83
367.357	-41.84
367.735	-48.86
368.114	7.31
368.492	14.34
368.871	-53.54
369.249	-6.73
369.628	86.89
370.006	-23.11
370.384	30.72
370.763	19.02
371.141	54.12
371.519	-2.05
371.897	-62.9
372.276	-34.82
372.654	-32.47
373.032	-65.24
373.41	-93.33
373.788	42.42
374.166	-9.07
374.544	47.1
374.922	-34.82
375.299	51.78
375.677	112.64
376.055	23.7
376.433	-2.05
376.811	14.34
377.188	47.1
377.566	-90.99
377.943	-65.24
378.321	-41.84
378.699	-20.77
379.076	-44.18
379.453	7.31
379.831	16.68
380.208	-37.16
380.586	35.4
380.963	-83.97
381.34	23.7
381.717	-72.26
382.094	56.47
382.472	-13.75
382.849	-20.77
383.226	68.17
383.603	56.47
383.98	30.72
384.357	-6.73
384.734	-32.47
385.111	40.08
385.487	23.7
385.864	-20.77
386.241	-83.97
386.618	-25.45
386.994	75.19
387.371	21.36
387.748	-62.9
388.124	37.74
388.501	-2.05
388.877	47.1
389.254	42.42
389.63	-2.05
390.006	35.4
390.383	-46.52
390.759	4.97
391.135	56.47
391.512	54.12
391.888	-25.45
392.264	42.42
392.64	-11.41
393.016	-100.35
393.392	33.06
393.768	54.12
394.144	-6.73
394.52	-20.77
394.896	61.15
395.272	26.04
395.648	-58.22
396.023	7.31
396.399	-13.75
396.775	0.29
397.15	-4.39
397.526	35.4
397.902	28.38
398.277	84.55
398.653	21.36
399.028	19.02
399.404	30.72
399.779	49.44
400.154	9.65
400.53	-16.09
400.905	12
401.28	-4.39
401.655	33.06
402.03	-72.26
402.406	40.08
402.781	47.1
403.156	-20.77
403.531	12
403.906	58.81
404.281	23.7
404.655	-18.43
405.03	-9.07
405.405	16.68
405.78	-34.82
406.155	28.38
406.529	54.12
406.904	-62.9
407.279	-133.12
407.653	-88.65
408.028	7.31
408.402	-4.39
408.777	84.55
409.151	-69.92
409.525	-41.84
409.9	33.06
410.274	0.29
410.648	19.02
411.023	-74.6
411.397	-62.9
411.771	-67.58
412.145	33.06
412.519	-13.75
412.893	89.23
413.267	-67.58
413.641	-112.05
414.015	26.04
414.389	12
414.763	-34.82
415.137	-2.05
415.51	-18.43
415.884	-41.84
416.258	37.74
416.631	28.38
417.005	-2.05
417.379	-51.2
417.752	33.06
418.126	-81.63
418.499	-74.6
418.872	-4.39
419.246	-58.22
419.619	75.19
419.992	42.42
420.366	-23.11
420.739	19.02
421.112	33.06
421.485	23.7
421.858	14.34
422.231	23.7
422.604	23.7
422.977	-25.45
423.35	47.1
423.723	-20.77
424.096	-9.07
424.469	-34.82
424.842	-44.18
425.214	72.85
425.587	-93.33
425.96	16.68
426.332	56.47
426.705	-62.9
427.078	126.68
427.45	2.63
427.823	-37.16
428.195	86.89
428.567	-67.58
428.94	117.32
429.312	-23.11
429.684	-16.09
430.057	-23.11
430.429	-37.16
430.801	42.42
431.173	93.91
431.545	-20.77
431.917	14.34
432.289	-48.86
432.661	14.34
433.033	42.42
433.405	-20.77
433.777	23.7
434.149	51.78
434.52	-16.09
434.892	72.85
435.264	49.44
435.635	-69.92
436.007	-27.79
436.379	91.57
436.75	-9.07
437.122	-11.41
437.493	-62.9
437.864	-102.69
438.236	-6.73
438.607	19.02
438.978	23.7
439.35	33.06
439.721	61.15
440.092	-6.73
440.463	-65.24
440.834	-65.24
441.205	28.38
441.576	9.65
441.947	19.02
442.318	9.65
442.689	44.76
443.06	30.72
443.431	2.63
443.802	-4.39
444.172	-69.92
444.543	-32.47
444.914	70.51
445.284	93.91
445.655	14.34
446.025	-6.73
446.396	16.68
446.766	58.81
447.137	63.49
447.507	-18.43
447.878	82.21
448.248	150.09
448.618	79.87
448.988	173.49
449.359	267.11
449.729	356.05
450.099	519.89
450.469	564.36
450.839	639.26
451.209	725.86
451.579	679.05
451.949	894.38
452.319	983.32
452.688	1034.81
453.058	910.76
453.428	1076.94
453.798	1123.75
454.167	1224.39
454.537	1268.86
454.906	1357.8
455.276	1416.32
455.645	1404.61
456.015	1474.83
456.384	1514.62
456.754	1699.52
457.123	1683.14
457.492	1870.38
457.862	1865.7
458.231	1945.28
458.6	2111.46
458.969	2263.59
459.338	2275.29
459.707	2673.18
460.076	2647.44
460.445	2790.21
460.814	2844.04
461.183	3028.95
461.552	3209.17
461.921	3218.53
462.29	3368.32
462.658	3588.33
463.027	3834.09
463.396	3908.99
463.764	3925.37
464.133	4033.04
464.501	4386.46
464.87	4505.82
465.238	4629.87
465.607	4791.37
465.975	5210.33
466.344	5264.16
466.712	5470.12
467.08	5701.84
467.448	5697.16
467.817	5924.19
468.185	5903.12
468.553	5956.96
468.921	6301.01
469.289	6226.12
469.657	6319.74
470.025	6441.45
470.393	6488.26
470.76	6553.79
471.128	6799.55
471.496	6752.74
471.864	6481.24
472.231	6792.53
472.599	6565.5
472.967	6729.33
473.334	6703.59
473.702	6616.99
474.069	6490.6
474.437	6408.68
474.804	6181.65
475.172	6464.85
475.539	6256.54
475.906	6069.3
476.273	6357.19
476.641	5924.19
477.008	5896.1
477.375	5886.74
477.742	5760.35
478.109	5306.29
478.476	5463.1
478.843	5236.07
479.21	5257.14
479.577	5406.93
479.944	4854.56
480.31	5016.06
480.677	4774.99
481.044	4437.95
481.411	4395.82
481.777	4152.4
482.144	3930.05
482.51	4026.01
482.877	3791.96
483.243	3873.88
483.61	3794.3
483.976	3756.85
484.342	3836.43
484.709	3724.08
485.075	3478.33
485.441	3543.86
485.807	3593.01
486.174	3354.28
486.54	3389.39
486.906	3195.12
487.272	3014.9
487.638	2710.63
488.004	2530.41
488.37	2305.72
488.735	1648.03
489.101	1334.4
489.467	1090.98
489.833	639.26
490.198	473.08
490.564	220.3
490.93	189.88
491.295	192.22
491.661	42.42
492.026	49.44
492.392	168.81
492.757	49.44
493.122	199.24
493.488	93.91
493.853	217.96
494.218	206.26
494.584	248.39
494.949	311.58
495.314	241.37
495.679	260.09
496.044	210.94
496.409	180.51
496.774	304.56
497.139	285.84
497.504	274.14
497.868	337.33
498.233	374.78
498.598	522.23
498.963	454.36
499.327	365.42
499.692	526.91
500.057	519.89
500.421	526.91
500.786	547.98
501.15	672.03
501.514	641.6
501.879	763.31
502.243	793.73
502.607	770.33
502.972	775.01
503.336	763.31
503.7	840.54
504.064	772.67
504.428	980.98
504.792	985.66
505.156	988
505.52	973.96
505.884	1175.24
506.248	1147.16
506.612	1243.12
506.976	1266.52
507.339	1289.93
507.703	1442.06
508.067	1453.77
508.43	1559.09
508.794	1554.41
509.158	1608.24
509.521	1718.25
509.885	1685.48
510.248	1889.1
510.611	1945.28
510.975	2001.45
511.338	2013.15
511.701	2069.33
512.064	2329.13
512.428	2160.61
512.791	2256.57
513.154	2385.3
513.517	2387.64
513.88	2469.56
514.243	2703.61
514.606	2558.5
514.969	2605.31
515.331	2628.71
515.694	2827.66
516.057	2748.08
516.42	2998.52
516.782	2865.11
517.145	2932.98
517.508	2998.52
517.87	2993.84
518.233	3094.48
518.595	3188.1
518.958	3145.97
519.32	3085.12
519.682	3213.85
520.045	3199.8
520.407	3148.31
520.769	3211.51
521.131	3417.47
521.493	3309.81
521.855	3387.05
522.217	3506.42
522.579	3457.26
522.941	3351.94
523.303	3525.14
523.665	3562.59
524.027	3447.9
524.389	3457.26
524.751	3520.46
525.112	3440.88
525.474	3450.24
525.835	3574.29
526.197	3478.33
526.559	3316.83
526.92	3351.94
527.282	3422.16
527.643	3419.82
528.004	3412.79
528.366	3389.39
528.727	3468.97
529.088	3452.58
529.449	3342.58
529.811	3314.49
530.172	3284.06
530.533	3567.27
530.894	3291.09
531.255	3337.9
531.616	3171.72
531.977	3291.09
532.337	3206.83
532.698	3291.09
533.059	3260.66
533.42	3178.74
533.78	3183.42
534.141	3284.06
534.502	3108.52
534.862	3181.08
535.223	3054.69
535.583	3007.88
535.944	3131.93
536.304	3035.97
536.664	3005.54
537.025	2890.85
537.385	2956.39
537.745	2965.75
538.105	2982.14
538.466	2930.64
538.826	2801.91
539.186	2984.48
539.546	2717.65
539.906	3031.29
540.266	2886.17
540.626	2879.15
540.985	2872.13
541.345	2837.02
541.705	2734.04
542.065	2790.21
542.424	2837.02
542.784	2799.57
543.144	2614.67
543.503	2799.57
543.863	2881.49
544.222	2640.42
544.581	2694.25
544.941	2614.67
545.3	2911.92
545.659	2687.23
546.019	2682.55
546.378	2656.8
546.737	2422.75
547.096	2738.72
547.455	2771.49
547.814	2469.56
548.173	2446.15
548.532	2460.2
548.891	2755.1
549.25	2530.41
549.609	2670.84
549.968	2272.95
550.326	2633.4
550.685	2361.89
551.044	2345.51
551.402	2406.36
551.761	2443.81
552.119	2448.49
552.478	2425.09
552.836	2434.45
553.195	2418.07
553.553	2256.57
553.911	2167.63
554.27	2343.17
554.628	2179.33
554.986	2509.35
555.344	2354.87
555.702	2186.35
556.06	2282.31
556.418	2205.08
556.776	2104.43
557.134	2158.27
557.492	2207.42
557.85	2109.12
558.208	2144.22
558.565	1996.77
558.923	1996.77
559.281	2132.52
559.638	2059.96
559.996	1987.41
560.353	2052.94
560.711	2041.24
561.068	2092.73
561.426	1978.05
561.783	2015.49
562.141	2050.6
562.498	1935.92
562.855	1924.21
563.212	1978.05
563.569	1818.89
563.926	1814.21
564.283	1783.78
564.641	1788.46
564.997	1774.42
565.354	1800.16
565.711	1863.36
566.068	1718.25
566.425	1940.6
566.782	1643.35
567.138	1765.06
567.495	1650.37
567.852	1608.24
568.208	1608.24
568.565	1690.16
568.921	1531
569.278	1594.2
569.634	1561.43
569.991	1643.35
570.347	1563.77
570.703	1580.15
571.059	1526.32
571.416	1514.62
571.772	1413.98
572.128	1442.06
572.484	1329.72
572.84	1437.38
573.196	1364.82
573.552	1409.3
573.908	1348.44
574.263	1409.3
574.619	1348.44
574.975	1439.72
575.331	1322.7
575.686	1273.54
576.042	1261.84
576.398	1177.58
576.753	1219.71
577.109	1186.94
577.464	1306.31
577.82	1189.28
578.175	1135.45
578.53	1147.16
578.885	1205.67
579.241	1095.66
579.596	1095.66
579.951	1088.64
580.306	1023.11
580.661	1210.35
581.016	1081.62
581.371	1105.03
581.726	1222.05
582.081	917.78
582.436	976.3
582.791	971.61
583.145	997.36
583.5	917.78
583.855	1081.62
584.209	1072.26
584.564	1018.43
584.918	955.23
585.273	999.7
585.627	955.23
585.982	835.86
586.336	817.14
586.69	943.53
587.045	798.42
587.399	4451.99
587.753	812.46
588.107	997.36
588.461	814.8
588.815	782.03
589.169	880.33
589.523	798.42
589.877	742.24
590.231	894.38
590.585	718.84
590.939	819.48
591.293	697.77
591.646	758.63
592	686.07
592.354	629.9
592.707	742.24
593.061	807.78
593.414	763.31
593.768	697.77
594.121	672.03
594.474	767.99
594.828	899.06
595.181	643.94
595.534	655.64
595.887	643.94
596.24	758.63
596.593	643.94
596.946	693.09
597.299	704.79
597.652	749.26
598.005	629.9
598.358	599.47
598.711	660.32
599.064	779.69
599.416	494.15
599.769	547.98
600.122	634.58
600.474	688.41
600.827	540.96
601.179	597.13
601.532	552.66
601.884	704.79
602.237	585.43
602.589	555
602.941	510.53
603.294	686.07
603.646	531.59
603.998	428.61
604.35	545.64
604.702	564.36
605.054	515.21
605.406	510.53
605.758	611.17
606.11	505.85
606.462	643.94
606.813	440.31
607.165	540.96
607.517	540.96
607.869	501.17
608.22	629.9
608.572	468.4
608.923	470.74
609.275	365.42
609.626	468.4
609.978	489.46
610.329	510.53
610.68	503.51
611.031	442.65
611.383	416.91
611.734	489.46
612.085	327.97
612.436	477.76
612.787	519.89
613.138	234.35
613.489	377.12
613.84	459.04
614.191	246.05
614.542	395.84
614.892	316.26
615.243	470.74
615.594	239.03
615.944	332.65
616.295	381.8
616.646	393.5
616.996	398.18
617.347	264.77
617.697	384.14
618.047	379.46
618.398	236.69
618.748	356.05
619.098	454.36
619.448	344.35
619.798	271.79
620.149	353.71
620.499	374.78
620.849	304.56
621.199	377.12
621.548	349.03
621.898	400.52
622.248	299.88
622.598	327.97
622.948	334.99
623.297	344.35
623.647	203.92
623.997	299.88
624.346	311.58
624.696	292.86
625.045	173.49
625.395	421.59
625.744	360.74
626.093	330.31
626.443	346.69
626.792	201.58
627.141	283.5
627.49	253.07
627.839	379.46
628.188	274.14
628.537	271.79
628.886	168.81
629.235	295.2
629.584	220.3
629.933	290.52
630.282	246.05
630.63	210.94
630.979	269.45
631.328	288.18
631.676	201.58
632.025	267.11
632.374	196.9
632.722	232.01
633.07	297.54
633.419	227.32
633.767	224.98
634.115	93.91
634.464	100.94
634.812	189.88
635.16	147.75
635.508	250.73
635.856	189.88
636.204	210.94
636.552	260.09
636.9	150.09
637.248	159.45
637.596	166.47
637.944	253.07
638.291	133.7
638.639	227.32
638.987	224.98
639.334	187.54
639.682	98.6
640.029	260.09
640.377	194.56
640.724	136.04
641.072	253.07
641.419	236.69
641.766	145.41
642.114	253.07
642.461	126.68
642.808	194.56
643.155	187.54
643.502	171.15
643.849	117.32
644.196	136.04
644.543	136.04
644.89	264.77
645.237	70.51
645.584	210.94
645.93	274.14
646.277	150.09
646.624	161.79
646.97	229.67
647.317	178.17
647.663	100.94
648.01	147.75
648.356	150.09
648.703	86.89
649.049	194.56
649.395	33.06
649.741	112.64
650.088	187.54
650.434	129.02
650.78	47.1
651.126	180.51
651.472	159.45
651.818	114.98
652.164	185.19
652.51	138.38
652.855	166.47
653.201	58.81
653.547	152.43
653.893	82.21
654.238	119.66
654.584	86.89
654.929	126.68
655.275	140.72
655.62	217.96
655.966	72.85
656.311	79.87
656.657	28.38
657.002	58.81
657.347	145.41
657.692	159.45
658.037	63.49
658.382	157.11
658.728	131.36
659.073	65.83
659.417	122
659.762	122
660.107	166.47
660.452	178.17
660.797	131.36
661.142	164.13
661.486	222.64
661.831	68.17
662.175	138.38
662.52	70.51
662.864	12
663.209	147.75
663.553	84.55
663.898	140.72
664.242	175.83
664.586	26.04
664.93	12
665.275	105.62
665.619	91.57
665.963	72.85
666.307	136.04
666.651	70.51
666.995	23.7
667.339	42.42
667.682	79.87
668.026	161.79
668.37	40.08
668.714	58.81
669.057	180.51
669.401	168.81
669.745	77.53
670.088	56.47
670.432	40.08
670.775	79.87
671.118	21.36
671.462	14.34
671.805	154.77
672.148	2.63
672.491	-4.39
672.835	51.78
673.178	49.44
673.521	91.57
673.864	105.62
674.207	75.19
674.55	77.53
674.892	100.94
675.235	37.74
675.578	112.64
675.921	98.6
676.263	44.76
676.606	19.02
676.949	98.6
677.291	47.1
677.634	23.7
677.976	51.78
678.319	56.47
678.661	72.85
679.003	124.34
679.346	-16.09
679.688	75.19
680.03	89.23
680.372	40.08
680.714	7.31
681.056	49.44
681.398	93.91
681.74	-39.5
682.082	26.04
682.424	68.17
682.766	86.89
683.107	-16.09
683.449	147.75
683.791	7.31
684.132	14.34
684.474	63.49
684.815	7.31
685.157	-6.73
685.498	54.12
685.84	65.83
686.181	19.02
686.522	-9.07
686.863	49.44
687.205	2.63
687.546	114.98
687.887	70.51
688.228	-2.05
688.569	63.49
688.91	-13.75
689.251	-25.45
689.592	117.32
689.932	49.44
690.273	0.29
690.614	-9.07
690.954	54.12
691.295	117.32
691.636	100.94
691.976	-23.11
692.317	44.76
692.657	37.74
692.997	100.94
693.338	23.7
693.678	28.38
694.018	-48.86
694.359	58.81
694.699	28.38
695.039	23.7
695.379	14.34
695.719	105.62
696.059	-9.07
696.399	23.7
696.739	-9.07
697.078	-16.09
697.418	-23.11
697.758	58.81
698.098	103.28
698.437	75.19
698.777	84.55
699.116	82.21
699.456	77.53
699.795	44.76
700.135	54.12
700.474	103.28
700.813	-39.5
701.153	58.81
701.492	19.02
701.831	54.12
702.17	103.28
702.509	-65.24
702.848	49.44
703.187	40.08
703.526	-30.13
703.865	93.91
704.204	119.66
704.542	19.02
704.881	86.89
705.22	9.65
705.558	65.83
705.897	4.97
706.236	-62.9
706.574	-100.35
706.912	44.76
707.251	-20.77
707.589	-53.54
707.928	-2.05
708.266	-11.41
708.604	-4.39
708.942	56.47
709.28	-48.86
709.618	61.15
709.956	14.34
710.294	-16.09
710.632	35.4
710.97	28.38
711.308	26.04
711.646	58.81
711.983	30.72
712.321	119.66
712.659	-41.84
712.996	-9.07
713.334	-55.88
713.671	-23.11
714.009	23.7
714.346	126.68
714.683	-30.13
715.021	44.76
715.358	-4.39
715.695	28.38
716.032	19.02
716.369	-11.41
716.707	-53.54
717.044	40.08
717.38	54.12
717.717	103.28
718.054	63.49
718.391	-41.84
718.728	-11.41
719.065	54.12
719.401	21.36
719.738	33.06
720.074	58.81
720.411	-37.16
720.747	-90.99
721.084	91.57
721.42	-2.05
721.757	28.38
722.093	-2.05
722.429	89.23
722.765	-30.13
723.101	16.68
723.438	103.28
723.774	42.42
724.11	65.83
724.446	84.55
724.781	51.78
725.117	-16.09
725.453	-32.47
725.789	-27.79
726.125	16.68
726.46	-13.75
726.796	68.17
727.131	-46.52
727.467	33.06
727.802	35.4
728.138	19.02
728.473	28.38
728.809	2.63
729.144	107.96
729.479	124.34
729.814	-16.09
730.149	44.76
730.484	28.38
730.819	131.36
731.154	-39.5
731.489	-27.79
731.824	28.38
732.159	-67.58
732.494	7.31
732.829	-18.43
733.163	-32.47
733.498	-37.16
733.833	21.36
734.167	-16.09
734.502	-48.86
734.836	-23.11
735.171	-4.39
735.505	51.78
735.839	28.38
736.173	33.06
736.508	44.76
736.842	35.4
737.176	-53.54
737.51	65.83
737.844	21.36
738.178	9.65
738.512	2.63
738.846	-65.24
739.18	61.15
739.513	21.36
739.847	-62.9
740.181	-2.05
740.514	51.78
740.848	9.65
741.181	-25.45
741.515	19.02
741.848	44.76
742.182	103.28
742.515	26.04
742.848	33.06
743.182	51.78
743.515	-90.99
743.848	37.74
744.181	19.02
744.514	-6.73
744.847	-25.45
745.18	-81.63
745.513	40.08
745.846	-13.75
746.179	-41.84
746.511	14.34
746.844	-11.41
747.177	14.34
747.509	98.6
747.842	-4.39
748.174	47.1
748.507	42.42
748.839	-27.79
749.172	105.62
749.504	-32.47
749.836	140.72
750.168	56.47
750.501	51.78
750.833	-16.09
751.165	12
751.497	35.4
751.829	-46.52
752.161	-13.75
752.492	-30.13
752.824	9.65
753.156	72.85
753.488	42.42
753.819	49.44
754.151	58.81
754.483	-83.97
754.814	-16.09
755.146	-16.09
755.477	4.97
755.808	79.87
756.14	-6.73
756.471	-76.95
756.802	26.04
757.134	37.74
757.465	-60.56
757.796	-58.22
758.127	51.78
758.458	42.42
758.789	-16.09
759.12	-32.47
759.45	-72.26
759.781	-25.45
760.112	-32.47
760.443	-41.84
760.773	-48.86
761.104	-6.73
761.434	-41.84
761.765	-44.18
762.095	42.42
762.426	-46.52
762.756	61.15
763.086	-16.09
763.417	23.7
763.747	4.97
764.077	-4.39
764.407	33.06
764.737	12
765.067	-30.13
765.397	44.76
765.727	21.36
766.057	49.44
766.387	12
766.716	23.7
767.046	-46.52
767.376	-16.09
767.705	-4.39
768.035	14.34
768.364	110.3
768.694	-53.54
769.023	-58.22
769.353	-34.82
769.682	4.97
770.011	103.28
770.34	-34.82
770.669	86.89
770.999	-13.75
771.328	89.23
771.657	-9.07
771.986	-27.79
772.315	-9.07
772.643	16.68
772.972	63.49
773.301	-88.65
773.63	84.55
773.958	9.65
774.287	-18.43
774.615	-39.5
774.944	-32.47
775.272	-37.16
775.601	-20.77
775.929	61.15
776.258	-48.86
776.586	79.87
776.914	56.47
777.242	-9.07
777.57	37.74
777.898	42.42
778.226	44.76
778.554	30.72
778.882	-60.56
779.21	-11.41
779.538	51.78
779.866	12
780.193	28.38
780.521	9.65
780.849	30.72
781.176	-32.47
781.504	-4.39
781.831	-79.29
782.159	-2.05
782.486	-20.77
782.813	-27.79
783.141	28.38
783.468	-51.2
783.795	-13.75
784.122	12
784.449	42.42
784.776	-9.07
785.103	-65.24
785.43	19.02
785.757	-48.86
786.084	-11.41
786.41	9.65
786.737	89.23
787.064	21.36
787.39	-105.03
787.717	84.55
788.043	0.29
788.37	30.72
788.696	49.44
789.023	-76.95
789.349	30.72
789.675	-67.58
790.001	98.6
790.328	-37.16
790.654	-13.75
790.98	-58.22
791.306	-83.97
791.632	7.31
791.958	-51.2
792.283	93.91
792.609	-9.07
792.935	89.23
793.261	-4.39
793.586	42.42
793.912	-72.26
794.238	4.97
794.563	-69.92
794.889	-93.33
795.214	9.65
795.539	19.02
795.865	-9.07
796.19	-90.99
796.515	-100.35
796.84	-30.13
797.165	-81.63
797.49	-18.43
797.815	-67.58
798.14	33.06
798.465	-6.73
798.79	-27.79
799.115	-105.03
799.44	-88.65
799.764	175.83
800.089	-44.18
800.414	23.7
800.738	35.4
801.063	-72.26
801.387	-32.47
801.711	2.63
802.036	-67.58
802.36	75.19
802.684	47.1
803.008	56.47
803.333	7.31
803.657	-32.47
803.981	-53.54
804.305	-9.07
804.629	-83.97
804.953	16.68
805.276	-23.11
805.6	30.72
805.924	-46.52
806.248	-67.58
806.571	44.76
806.895	-11.41
807.218	2.63
807.542	65.83
807.865	-4.39
808.189	61.15
808.512	98.6
808.835	75.19
809.158	-39.5
809.482	-62.9
809.805	-86.31
810.128	-60.56
810.451	-30.13
810.774	19.02
811.097	47.1
811.42	0.29
811.742	-51.2
812.065	-4.39
812.388	-62.9
812.711	2.63
813.033	-51.2
813.356	16.68
813.678	56.47
814.001	21.36
814.323	-2.05
814.645	-72.26
814.968	96.25
815.29	-9.07
815.612	42.42
815.934	-95.67
816.256	-9.07
816.578	19.02
816.9	-37.16
817.222	-9.07
817.544	35.4
817.866	-133.12
818.188	44.76
818.51	-60.56
818.831	98.6
819.153	0.29
819.475	12
819.796	-93.33
820.118	-86.31
820.439	-39.5
820.761	-4.39
821.082	47.1
821.403	37.74
821.724	-116.73
822.046	-23.11
822.367	-9.07
822.688	-37.16
823.009	9.65
823.33	-20.77
823.651	-53.54
823.972	4.97
824.292	37.74
824.613	-41.84
824.934	-74.6
825.255	47.1
825.575	-6.73
825.896	14.34
826.216	147.75
826.537	77.53
826.857	9.65
827.177	-13.75
827.498	42.42
827.818	23.7
828.138	-58.22
828.458	-11.41
828.778	-55.88
829.098	-74.6
829.418	-74.6
829.738	-9.07
830.058	-65.24
830.378	12
830.698	-20.77
831.018	72.85
831.337	28.38
831.657	-20.77
831.977	30.72
832.296	-133.12
832.616	4.97
832.935	-44.18
833.254	-55.88
833.574	47.1
833.893	0.29
834.212	-9.07
834.531	147.75
834.851	-65.24
835.17	-13.75
835.489	82.21
835.808	-11.41
836.127	-74.6
836.445	-20.77
836.764	-20.77
837.083	-79.29
837.402	-46.52
837.72	-4.39
838.039	93.91
838.357	26.04
838.676	-18.43
838.994	-6.73
839.313	37.74
839.631	-9.07
839.949	-18.43
840.268	33.06
840.586	72.85
840.904	-32.47
841.222	0.29
841.54	26.04
841.858	40.08
842.176	-83.97
842.494	145.41
842.812	-27.79
843.129	-16.09
843.447	-2.05
843.765	-6.73
844.082	35.4
844.4	37.74
844.718	7.31
845.035	-90.99
845.352	-39.5
845.67	-4.39
845.987	49.44
846.304	9.65
846.621	42.42
846.939	-6.73
847.256	-48.86
847.573	16.68
847.89	79.87
848.207	89.23
848.524	35.4
848.84	-11.41
849.157	12
849.474	-23.11
849.791	-60.56
850.107	-74.6
850.424	19.02
850.74	84.55
851.057	-74.6
851.373	2.63
851.69	9.65
852.006	56.47
852.322	12
852.638	68.17
852.954	21.36
853.271	-20.77
853.587	-100.35
853.903	-69.92
854.219	-58.22
854.534	-4.39
854.85	21.36
855.166	-48.86
855.482	-18.43
855.797	-48.86
856.113	-114.39
856.429	33.06
856.744	75.19
857.06	114.98
857.375	79.87
857.69	-151.84
858.006	-20.77
858.321	105.62
858.636	-27.79
858.951	-23.11
859.266	-9.07
859.582	-20.77
859.897	-112.05
860.211	-27.79
860.526	40.08
860.841	-9.07
861.156	-4.39
861.471	-25.45
861.785	-67.58
862.1	89.23
862.415	89.23
862.729	86.89
863.044	9.65
863.358	63.49
863.672	-90.99
863.987	14.34
864.301	-55.88
864.615	16.68
864.929	51.78
865.243	-107.37
865.557	-20.77
865.871	21.36
866.185	14.34
866.499	86.89
866.813	-9.07
867.127	-128.44
867.441	21.36
867.754	35.4
868.068	19.02
868.382	16.68
868.695	-58.22
869.009	40.08
869.322	61.15
869.635	56.47
869.949	-2.05
870.262	23.7
870.575	100.94
870.888	-37.16
871.201	-16.09
871.514	19.02
871.827	12
872.14	103.28
872.453	98.6
872.766	-18.43
873.079	-27.79
873.392	89.23
873.704	-37.16
874.017	4.97
874.329	-48.86
874.642	49.44
874.954	-18.43
875.267	-93.33
875.579	-102.69
875.891	-44.18
876.204	33.06
876.516	-88.65
876.828	37.74
877.14	-25.45
877.452	-23.11
877.764	35.4
878.076	-93.33
878.388	-41.84
878.7	-4.39
879.012	-88.65
879.323	-34.82
879.635	-25.45
879.947	-9.07
880.258	-130.78
880.57	0.29
880.881	-142.48
881.192	-98.01
881.504	-27.79
881.815	-165.89
882.126	-32.47
882.438	114.98
882.749	23.7
883.06	-74.6
883.371	37.74
883.682	-34.82
883.993	54.12
884.303	61.15
884.614	-9.07
884.925	-88.65
885.236	12
885.546	21.36
885.857	56.47
886.168	61.15
886.478	-83.97
886.788	-55.88
887.099	14.34
887.409	-37.16
887.719	-60.56
888.03	-20.77
888.34	-55.88
888.65	110.3
888.96	16.68
889.27	-69.92
889.58	19.02
889.89	-25.45
890.2	2.63
890.51	-27.79
890.819	-76.95
891.129	-93.33
891.439	-13.75
891.748	-37.16
892.058	-23.11
892.367	-79.29
892.677	0.29
892.986	12
893.295	61.15
893.604	-39.5
893.914	4.97
894.223	-13.75
894.532	-41.84
894.841	14.34
895.15	-18.43
895.459	42.42
895.768	-37.16
896.077	-6.73
896.385	-16.09
896.694	33.06
897.003	-55.88
897.311	-16.09
897.62	-4.39
897.928	42.42
898.237	-11.41
898.545	7.31
898.854	-46.52
899.162	65.83
899.47	14.34
899.778	-44.18
900.086	-18.43
900.395	-13.75
900.703	-83.97
901.01	103.28
901.318	54.12
901.626	12
901.934	-13.75
902.242	-121.42
902.549	65.83
902.857	2.63
903.165	-25.45
903.472	84.55
903.78	-90.99
904.087	-18.43
904.395	-27.79
904.702	4.97
905.009	-93.33
905.316	-6.73
905.623	7.31
905.931	-16.09
906.238	49.44
906.545	-107.37
906.852	9.65
907.158	-74.6
907.465	47.1
907.772	26.04
908.079	23.7
908.385	133.7
908.692	37.74
908.999	-9.07
909.305	-6.73
909.611	-6.73
909.918	75.19
910.224	51.78
910.53	2.63
910.837	61.15
911.143	-51.2
911.449	19.02
911.755	-18.43
912.061	-9.07
912.367	-18.43
912.673	23.7
912.979	-20.77
913.285	77.53
913.59	49.44
913.896	-9.07
914.202	-60.56
914.507	-44.18
914.813	30.72
915.118	-44.18
915.424	-27.79
915.729	77.53
916.034	-67.58
916.34	33.06
916.645	23.7
916.95	-95.67
917.255	-30.13
917.56	107.96
917.865	28.38
918.17	7.31
918.475	2.63
918.78	0.29
919.084	-41.84
919.389	4.97
919.694	9.65
919.998	47.1
920.303	-2.05
920.607	-48.86
920.912	-6.73
921.216	-53.54
921.52	93.91
921.825	2.63
922.129	4.97
922.433	68.17
922.737	9.65
923.041	-88.65
923.345	147.75
923.649	35.4
923.953	23.7
924.257	84.55
924.561	61.15
924.864	7.31
925.168	-60.56
925.472	-16.09
925.775	16.68
926.079	-58.22
926.382	-9.07
926.686	26.04
926.989	68.17
927.292	-20.77
927.595	0.29
927.899	-23.11
928.202	-18.43
928.505	9.65
928.808	-76.95
929.111	-23.11
929.414	-126.1
929.716	-37.16
930.019	35.4
930.322	-27.79
930.625	-25.45
930.927	16.68
931.23	14.34
931.532	-69.92
931.835	79.87
932.137	-2.05
932.439	16.68
932.742	-34.82
933.044	56.47
933.346	-11.41
933.648	-27.79
933.95	-39.5
934.252	-67.58
934.554	-11.41
934.856	-83.97
935.158	-161.2
935.46	47.1
935.762	-9.07
936.063	-11.41
936.365	30.72
936.667	28.38
936.968	47.1
937.269	-79.29
937.571	12
937.872	-16.09
938.174	28.38
938.475	35.4
938.776	-93.33
939.077	21.36
939.378	-9.07
939.679	-23.11
939.98	-4.39
940.281	-20.77
940.582	56.47
940.883	26.04
941.183	-53.54
941.484	44.76
941.785	21.36
942.085	-76.95
942.386	-9.07
942.686	-37.16
942.987	35.4
943.287	12
943.587	-32.47
943.888	35.4
944.188	19.02
944.488	35.4
944.788	42.42
945.088	0.29
945.388	-95.67
945.688	-107.37
945.988	-25.45
946.288	68.17
946.587	-60.56
946.887	75.19
947.187	21.36
947.486	63.49
947.786	-11.41
948.085	-74.6
948.385	4.97
948.684	19.02
948.983	28.38
949.283	21.36
949.582	-53.54
949.881	105.62
950.18	68.17
950.479	21.36
950.778	-76.95
951.077	-67.58
951.376	9.65
951.674	-13.75
951.973	-23.11
952.272	-32.47
952.57	-76.95
952.869	42.42
953.168	0.29
953.466	-16.09
953.764	37.74
954.063	40.08
954.361	7.31
954.659	-6.73
954.958	131.36
955.256	9.65
955.554	-34.82
955.852	-27.79
956.15	-20.77
956.448	-83.97
956.745	-13.75
957.043	-39.5
957.341	-74.6
957.639	26.04
957.936	21.36
958.234	9.65
958.531	-27.79
958.829	-32.47
959.126	-58.22
959.424	30.72
959.721	44.76
960.018	9.65
960.315	0.29
960.612	23.7
960.909	7.31
961.206	4.97
961.503	70.51
961.8	16.68
962.097	-39.5
962.394	61.15
962.691	107.96
962.987	-41.84
963.284	103.28
963.58	-18.43
963.877	-27.79
964.173	-69.92
964.47	119.66
964.766	19.02
965.062	12
965.359	-44.18
965.655	-6.73
965.951	40.08
966.247	-67.58
966.543	21.36
966.839	-39.5
967.135	4.97
967.431	35.4
967.726	-23.11
968.022	-37.16
968.318	-4.39
968.613	-74.6
968.909	58.81
969.204	-6.73
969.5	-90.99
969.795	82.21
970.09	54.12
970.386	91.57
970.681	4.97
970.976	42.42
971.271	-6.73
971.566	-51.2
971.861	54.12
972.156	68.17
972.451	-32.47
972.746	-27.79
973.041	-18.43
973.335	-39.5
973.63	-74.6
973.924	21.36
974.219	7.31
974.513	47.1
974.808	-25.45
975.102	-32.47
975.396	12
975.691	-58.22
975.985	-44.18
976.279	49.44
976.573	-2.05
976.867	-53.54
977.161	-34.82
977.455	-13.75
977.749	-20.77
978.043	-6.73
978.336	4.97
978.63	16.68
978.924	-32.47
979.217	-11.41
979.511	47.1
979.804	44.76
980.098	-69.92
980.391	44.76
980.684	33.06
980.977	-81.63
981.271	-51.2
981.564	16.68
981.857	12
982.15	26.04
982.443	-18.43
982.736	2.63
983.028	-53.54
983.321	-121.42
983.614	28.38
983.907	-88.65
984.199	-18.43
984.492	-27.79
984.784	30.72
985.077	14.34
985.369	-20.77
985.661	0.29
985.953	-2.05
986.246	-114.39
986.538	23.7
986.83	-32.47
987.122	-55.88
987.414	-9.07
987.706	7.31
987.998	0.29
988.289	-32.47
988.581	-74.6
988.873	28.38
989.165	-46.52
989.456	-44.18
989.748	-11.41
990.039	-30.13
990.33	-62.9
990.622	77.53
990.913	-13.75
991.204	42.42
991.495	70.51
991.787	23.7
992.078	42.42
992.369	58.81
992.66	7.31
992.95	35.4
993.241	-4.39
993.532	65.83
993.823	110.3
994.113	-41.84
994.404	-37.16
994.695	-16.09
994.985	-25.45
995.275	-34.82
995.566	47.1
995.856	7.31
996.146	23.7
996.437	82.21
996.727	-9.07
997.017	-109.71
997.307	61.15
997.597	65.83
997.887	-95.67
998.177	-69.92
998.466	9.65
998.756	-11.41
999.046	26.04
999.335	23.7
999.625	23.7
999.914	-53.54
1000.204	40.08
1000.493	-9.07
1000.783	-44.18
1001.072	33.06
1001.361	-16.09
1001.65	96.25
1001.939	-65.24
1002.228	33.06
1002.517	14.34
1002.806	42.42
1003.095	-123.76
1003.384	-20.77
1003.673	79.87
1003.961	42.42
1004.25	-44.18
1004.539	-41.84
1004.827	7.31
1005.116	-72.26
1005.404	16.68
1005.692	-39.5
1005.981	-34.82
1006.269	-32.47
1006.557	-30.13
1006.845	-27.79
1007.133	-130.78
1007.421	77.53
1007.709	-30.13
1007.997	-81.63
1008.285	-67.58
1008.573	28.38
1008.86	75.19
1009.148	-48.86
1009.436	-116.73
1009.723	19.02
1010.011	-20.77
1010.298	-72.26
1010.586	-23.11
1010.873	40.08
1011.16	-44.18
1011.447	-11.41
1011.734	40.08
1012.022	-2.05
1012.309	28.38
1012.595	-4.39
1012.882	54.12
1013.169	28.38
1013.456	47.1
1013.743	-39.5
1014.029	56.47
1014.316	-79.29
1014.603	-6.73
1014.889	84.55
1015.176	-16.09
1015.462	-69.92
1015.748	-2.05
1016.035	-74.6
1016.321	-76.95
1016.607	-11.41
1016.893	-30.13
1017.179	7.31
1017.465	-83.97
1017.751	-32.47
1018.037	28.38
1018.323	19.02
1018.608	68.17
1018.894	51.78
1019.18	-20.77
1019.465	-18.43
1019.751	-23.11
1020.036	-6.73
1020.322	23.7
1020.607	-65.24
1020.892	28.38
1021.177	40.08
1021.463	-83.97
1021.748	-83.97
1022.033	42.42
1022.318	-41.84
1022.603	79.87
1022.887	-27.79
1023.172	100.94
1023.457	-30.13
1023.742	96.25
1024.026	-79.29
1024.311	49.44
1024.595	-11.41
1024.88	33.06
1025.164	42.42
1025.449	16.68
1025.733	0.29
1026.017	-81.63
1026.301	70.51
1026.585	-46.52
1026.869	7.31
1027.153	-2.05
1027.437	-2.05
1027.721	-2.05
